Path difference [nm]	Intensity [a.u.]
0	100
48	100
96	100
144	100
192	100
240	100
288	100
336	100
384	100
432	100
480	100
528	100
576	100
624	100
672	100
720	100
768	100
816	100
864	100
912	100
960	100
1008	99.6033
1056	99.9367
1104	98.06
1152	99.7767
1200	100
1248	100
1296	100
1344	100
1392	100
1440	100
1488	100
1536	100
1584	100
1632	100
1680	100
1728	97.3167
1776	100
1824	98.1667
1872	96.26
1920	99.6433
1968	100
2016	100
2064	100
2112	100
2160	100
2208	100
2256	100
2304	100
2352	100
2400	100
2448	94.46
2496	97.6567
2544	100
2592	100
2640	98.6633
2688	100
2736	100
2784	100
2832	100
2880	100
2928	100
2976	100
3024	99.65
3072	97.8367
3120	100
3168	-0.2567
3216	48.9767
3264	-41.2133
3312	13.3267
3360	-26.8967
3408	0.1967
3456	3.62
3504	6.0767
3552	-24.0233
3600	-29.58
3648	29.3467
3696	-25.5633
3744	10.1
3792	-4.63
3840	24.6867
3888	63.28
3936	79.15
3984	95.6233
4032	99.7067
4080	100
4128	96.4933
4176	92.32
4224	79.72
4272	73.3667
4320	67.4167
4368	59.3533
4416	59.3467
4464	65.12
4512	68.5667
4560	79.5733
4608	91.7633
4656	95.27
4704	99.5233
4752	100
4800	97.4933
4848	91.1667
4896	80.8
4944	66.42
4992	60.77
5040	57.8433
5088	57.0433
5136	-0.32
5184	9.1833
5232	27.66
5280	35.39
5328	-4.9467
5376	-20.9433
5424	-9.6133
5472	-0.4767
5520	5.39
5568	-14.1467
5616	-7.0567
5664	17.2067
5712	1.6933
5760	13.3833
5808	44.3367
5856	54.66
5904	59.04
5952	57.5467
6000	55.53
6048	49.7367
6096	42.5867
6144	38.7233
6192	36.2567
6240	33.5
6288	33.7533
6336	37.3
6384	43.7367
6432	51.4767
6480	56.3967
6528	58.9467
6576	60.0267
6624	59.0367
6672	53.1767
6720	49.6233
6768	45.5733
6816	38.1
6864	32.2467
6912	32
6960	33.1167
7008	37.48
7056	45.3433
7104	51.5067
7152	54.25
7200	58.72
7248	60.29
7296	57.6333
7344	52.6567
7392	45.0467
7440	38.11
7488	34.14
7536	32.2033
7584	31.3833
7632	34.8167
7680	37.33
7728	43.96
7776	54.4267
7824	59.9533
7872	61.3833
7920	60.9933
7968	58.3467
8016	47.9567
8064	47.5233
8112	43.28
8160	36.8233
8208	30.7433
8256	31.37
8304	33.67
8352	41.0967
8400	48.14
8448	51.46
8496	56.06
8544	59.71
8592	60.5233
8640	56.5033
8688	51.6267
8736	44.5733
8784	34.05
8832	34.3067
8880	30.9967
8928	30.2567
8976	36.34
9024	42.8267
9072	48.0167
9120	53.9033
9168	61.7067
9216	61.86
9264	62.2267
9312	58.6633
9360	49.2233
9408	42.0733
9456	38.4133
9504	36.04
9552	29.7933
9600	30.4733
9648	32.51
9696	39.63
9744	53.6867
9792	59.91
9840	61.02
9888	63.23
9936	60.9967
9984	57.51
10032	53.13
10080	47.4733
10128	33.59
10176	29.6767
10224	28.6167
10272	30.85
10320	37.21
10368	39.31
10416	45.4467
10464	53.15
10512	60.93
10560	63.2967
10608	62.1433
10656	56.8333
10704	47.9833
10752	45.4467
10800	37.4233
10848	32.19
10896	28.4567
10944	30.0667
10992	34.51
11040	40.2767
11088	53.6667
11136	55.2533
11184	59.6067
11232	63.96
11280	61.62
11328	54.9867
11376	50.2867
11424	43.0867
11472	17.0733
11520	8.9133
11568	9.1467
11616	18.32
11664	-1.9867
11712	2.0767
11760	1.4367
11808	-0.9933
11856	0.2667
11904	0.8767
11952	2.4933
12000	-1.23
12048	-28.6567
12096	3.88
12144	-1.1033
12192	16.8733
12240	-12.65
12288	22.8933
12336	42.1967
12384	56.9633
12432	62.66
12480	64.4467
12528	64.1267
12576	59.66
12624	49.6167
12672	39.8867
12720	34.2067
12768	27.4733
12816	27.29
12864	28.48
12912	30.0533
12960	41.27
13008	52.93
13056	57.1933
13104	61.46
13152	65.1267
13200	61.8833
13248	56.2333
13296	52.2033
13344	41.5133
13392	30.11
13440	28.89
13488	27.01
13536	28.28
13584	36.6867
13632	42.09
13680	46.0833
13728	59.0867
13776	63.6767
13824	65.8233
13872	65.2067
13920	59.1933
13968	51.43
14016	44.07
14064	35.25
14112	28.38
14160	26.0667
14208	26.7133
14256	29.3867
14304	38.35
14352	50.68
14400	58.37
14448	62.21
14496	65.5867
14544	63.4833
14592	59.4633
14640	48.9467
14688	40.5833
14736	31.99
14784	27.9433
14832	25.5767
14880	27.4633
14928	38.78
14976	43.5733
15024	48.9133
15072	57.4467
15120	65.77
15168	66.1133
15216	64.9367
15264	58.05
15312	49.7467
15360	39.5
15408	37.0433
15456	29.2567
15504	25.1567
15552	27.17
15600	34.2933
15648	49.53
15696	55.3733
15744	60.4567
15792	63.0767
15840	67.2433
15888	62.3133
15936	59.3067
15984	55.1067
16032	41.5967
16080	29.58
16128	24.5833
16176	24.1733
16224	32.6167
16272	46.64
16320	46.3933
16368	47.8967
16416	54.3533
16464	66.7733
16512	67.7033
16560	63.11
16608	50.15
16656	43.6333
16704	39.3167
16752	34.1
16800	28.41
16848	25.1033
16896	29.04
16944	35.7133
16992	49.01
17040	60.78
17088	62.68
17136	67.9933
17184	67.9767
17232	61.88
17280	54.2233
17328	43.8467
17376	36.7267
17424	25.31
17472	23.64
17520	23.7433
17568	30.7333
17616	40.7033
17664	50.9733
17712	55.76
17760	66.5933
17808	69.2967
17856	67.0167
17904	65.3567
17952	52.1533
18000	39.45
18048	29.6633
18096	25.74
18144	23.25
18192	29.4667
18240	31.1
18288	34.43
18336	43.27
18384	58.4967
18432	66.7967
18480	69.8333
18528	65.34
18576	59.8267
18624	54.6633
18672	48.4833
18720	36.78
18768	25.7333
18816	22.85
18864	23.2533
18912	26.52
18960	39.9433
19008	46.91
19056	55.18
19104	66.3367
19152	70.2667
19200	68.19
19248	67.18
19296	56.6833
19344	40.1433
19392	35.63
19440	27.3933
19488	21.8333
19536	25.6333
19584	34.1
19632	38.1467
19680	50.2367
19728	63.4
19776	65.32
19824	70.3367
19872	65.7533
19920	57.5
19968	53.2633
20016	43.34
20064	31.9467
20112	23.0433
20160	21.8967
20208	26.8833
20256	40.4
20304	49.6233
20352	54.2033
20400	60.6033
20448	70.48
20496	70.3733
20544	64.4
20592	57.86
20640	50.98
20688	33.4033
20736	27.24
20784	24.5
20832	21.37
20880	27.92
20928	39.5733
20976	44.11
21024	57.8
21072	69.9233
21120	71.2733
21168	71.8233
21216	68.5067
21264	56.32
21312	44.5467
21360	36.06
21408	22.7367
21456	20.7367
21504	21.3367
21552	24.0033
21600	33.13
21648	49.5767
21696	60.0033
21744	68.1033
21792	71.5267
21840	67.2567
21888	66.4133
21936	58.6667
21984	46.19
22032	30.52
22080	22.72
22128	20.3167
22176	22.7667
22224	35.0533
22272	42.7867
22320	47.7233
22368	63.3633
22416	71.0667
22464	72.3833
22512	70.1133
22560	58.4667
22608	44.85
22656	37.4767
22704	31.5333
22752	21.3933
22800	21.7633
22848	28.2767
22896	33.08
22944	46.69
22992	62.7967
23040	68.4667
23088	71.3667
23136	72.03
23184	62.7167
23232	57.1467
23280	47.38
23328	34.7367
23376	22.2667
23424	19.87
23472	21.06
23520	29.03
23568	47.5933
23616	55.12
23664	61.8867
23712	69.9133
23760	72.3567
23808	65.2667
23856	61.63
23904	49.24
23952	28.4667
24000	25.1733
24048	22.0433
24096	19.5467
24144	27.9733
24192	33.59
24240	48.14
24288	56.9233
24336	70.0967
24384	72.5633
24432	72.64
24480	66.3767
24528	42.6033
24576	45.2533
24624	38.1467
24672	23.9067
24720	19.0567
24768	23.8633
24816	26.79
24864	37.7633
24912	55.98
24960	63.7633
25008	67.7033
25056	73.6933
25104	69.7233
25152	62.7367
25200	56.5933
25248	41.8933
25296	27.4167
25344	22.1133
25392	18.4267
25440	21.1233
25488	35.1867
25536	43.25
25584	50.13
25632	64.6967
25680	73.43
25728	72.7967
25776	71.2333
25824	56.9833
25872	44.3933
25920	37.2567
25968	29.3633
26016	19.3067
26064	20.0067
26112	24.0133
26160	31.24
26208	44.0667
26256	60.67
26304	70.17
26352	73.3933
26400	72.9833
26448	63.2067
26496	55.0733
26544	49.04
26592	28.7633
26640	19.4167
26688	18.02
26736	19.7867
26784	28.8033
26832	47.1767
26880	55.78
26928	60.0567
26976	72.2533
27024	74.1033
27072	71.31
27120	62.9033
27168	53.2467
27216	35.3167
27264	30.0767
27312	20.5167
27360	18.3667
27408	27.99
27456	34.23
27504	41.83
27552	56.1933
27600	69.98
27648	75.01
27696	74.57
27744	68.0333
27792	52.5933
27840	46.7067
27888	38.8233
27936	28.61
27984	18.2167
28032	18.2867
28080	20.8067
28128	29.9533
28176	50.8267
28224	56.77
28272	63.4667
28320	74.1267
28368	73.1233
28416	67.7667
28464	64.3567
28512	53.2733
28560	32.6867
28608	20.1833
28656	17.9767
28704	18.2367
28752	30.2467
28800	34.7
28848	40.27
28896	53.44
28944	69.5133
28992	74.7267
29040	75.06
29088	71.4367
29136	53.75
29184	48.1567
29232	38.3633
29280	20.8333
29328	17.6533
29376	20.7767
29424	22.59
29472	34.04
29520	52.56
29568	69.07
29616	72.56
29664	75.0667
29712	68.1133
29760	63.2933
29808	56.2633
29856	44.6233
29904	25.3333
29952	18.33
30000	17.8033
30048	18.4167
30096	31.6133
30144	38.14
30192	53.25
30240	72.71
30288	73.0967
30336	75.0867
30384	73.3333
30432	65.9133
30480	44.9433
30528	27.8067
30576	25.0933
30624	16.6367
30672	19.5767
30720	20.86
30768	26.5
30816	43.02
30864	64.1667
30912	71.15
30960	73.66
31008	75.3533
31056	71.13
31104	64.6767
31152	49.0467
31200	28.5933
31248	24.7367
31296	20.14
31344	17.2433
31392	20.1233
31440	36.85
31488	55.74
31536	60.3633
31584	71.4433
31632	75.67
31680	75.2433
31728	73.5633
31776	64.2433
31824	40.55
31872	30.7867
31920	24.48
31968	19.6467
32016	18.74
32064	21.2967
32112	33.5267
32160	55.1733
32208	65.8067
32256	69.73
32304	74.0267
32352	75.3067
32400	63.8033
32448	45.6733
32496	40.2567
32544	28.9867
32592	17.1667
32640	17.2667
32688	16.93
32736	23.4267
32784	42.39
32832	52.8067
32880	62.2167
32928	63.84
32976	75.2967
33024	75.27
33072	68.2867
33120	53.37
33168	38.2967
33216	34.1967
33264	27.62
33312	20.4233
33360	19.1367
33408	32.4067
33456	35.5
33504	43.5867
33552	67.2733
33600	71.48
33648	72.93
33696	74.27
33744	63.2167
33792	57.3467
33840	52.3133
33888	38.1367
33936	24.1633
33984	18.16
34032	17.6733
34080	27.0167
34128	42.4933
34176	46.5233
34224	53.7867
34272	66.2
34320	75.5433
34368	69.8367
34416	68.89
34464	55.2767
34512	36.4967
34560	32.8767
34608	28.3867
34656	19.8767
34704	18.2833
34752	25.2
34800	32.95
34848	36.18
34896	59.9033
34944	66.5467
34992	69.9667
35040	75.2067
35088	66.88
35136	62.1133
35184	54.2133
35232	37.8667
35280	26.06
35328	17.04
35376	17.0633
35424	25.5367
35472	40.1533
35520	46.2733
35568	53.8533
35616	66.8867
35664	75.4133
35712	73.0633
35760	72.0967
35808	60.66
35856	40.56
35904	35.7633
35952	24.95
36000	16.7067
36048	19.7533
36096	24.7467
36144	30.97
36192	46.8333
36240	65.69
36288	75.2533
36336	75.66
36384	71.4933
36432	55.51
36480	54.5067
36528	50.5033
36576	33.78
36624	19.0233
36672	17.21
36720	17.3967
36768	22.1
36816	37.42
36864	50.2
36912	64.2767
36960	69.7633
37008	74.76
37056	72.2267
37104	69.6533
37152	55.5733
37200	36.6433
37248	23.17
37296	19.9833
37344	17.47
37392	23.1033
37440	27.4933
37488	42.12
37536	58.75
37584	72.36
37632	73.09
37680	74.98
37728	72.6133
37776	60.6367
37824	47.5167
37872	41.7567
37920	27.43
37968	17.43
38016	17.47
38064	21.6467
38112	33.74
38160	53.19
38208	54.4133
38256	65.16
38304	73.4667
38352	73.51
38400	66.06
38448	61.7167
38496	48.69
38544	29.0367
38592	25.02
38640	18.9667
38688	22.5233
38736	28.0933
38784	38.3933
38832	44.9633
38880	60.12
38928	71.1333
38976	74.6267
39024	72.7733
39072	61.84
39120	46.44
39168	42.4767
39216	32.8867
39264	21.5533
39312	18.27
39360	23.04
39408	26.3533
39456	41.9033
39504	56.5633
39552	66.21
39600	73.5833
39648	73.9233
39696	66.2833
39744	58.3833
39792	51.61
39840	37.6833
39888	24.3667
39936	18.9167
39984	17.9433
40032	23.5533
40080	39.54
40128	42.3233
40176	51.7133
40224	68.47
40272	74.6267
40320	73.1967
40368	69.6167
40416	59.78
40464	42.4667
40512	31.8
40560	25.5533
40608	19.5233
40656	22.4067
40704	25.3233
40752	32.6133
40800	49.4567
40848	67.22
40896	71.7367
40944	73.67
40992	72.9167
41040	64.09
41088	47.15
41136	44.2267
41184	31.7767
41232	18.3533
41280	18.2967
41328	18.8
41376	25.0733
41424	41.0933
41472	58.5933
41520	61.3067
41568	69.3733
41616	73.8033
41664	71.3633
41712	64.1667
41760	43.4967
41808	29.5833
41856	24.5467
41904	23.63
41952	18.9533
42000	30.56
42048	32.5267
42096	43.9167
42144	56.7967
42192	68.3333
42240	73.1933
42288	72.99
42336	66.8967
42384	48.8
42432	46.8733
42480	37.8267
42528	19.1
42576	19.06
42624	21.3667
42672	24.76
42720	37.55
42768	50.9467
42816	58.8067
42864	68.6933
42912	73.59
42960	67.62
43008	65.7367
43056	57.97
43104	49.5333
43152	29.9267
43200	21.38
43248	19.47
43296	21.7633
43344	30.82
43392	37.42
43440	49.2533
43488	67.43
43536	73.06
43584	72.9967
43632	70.37
43680	65.5933
43728	52.8367
43776	41.6833
43824	29.4833
43872	20.6067
43920	21.5467
43968	22
44016	26.3
44064	45.9033
44112	63.4867
44160	68.27
44208	71.48
44256	72.7067
44304	68.99
44352	61.15
44400	47.94
44448	42.11
44496	22.1433
44544	21.1267
44592	20.1267
44640	22.8833
44688	39.82
44736	46.0867
44784	54.26
44832	63.0733
44880	72.43
44928	69.61
44976	69.04
45024	58.1367
45072	35.4833
45120	31.44
45168	30.8267
45216	21.23
45264	21.4067
45312	31.0433
45360	35.9567
45408	44.59
45456	61.46
45504	66.34
45552	72.11
45600	69.9333
45648	58.7167
45696	51.6433
45744	49.7367
45792	31.2467
45840	22.28
45888	20.5433
45936	21.5133
45984	30.8733
46032	47.1633
46080	55.3033
46128	56.8167
46176	68.5867
46224	71.7167
46272	69.57
46320	59.7167
46368	55.77
46416	32.3233
46464	30.6
46512	24.7133
46560	20.8467
46608	27.95
46656	35.0833
46704	40.7833
46752	53.63
46800	65.51
46848	71.4667
46896	71.56
46944	68.0467
46992	53.32
47040	47.09
47088	40.29
47136	29.7667
47184	22.0533
47232	21.65
47280	24.4067
47328	32.8167
47376	51.8933
47424	56.5567
47472	60.9033
47520	69.61
47568	69.3033
47616	65.2267
47664	61.41
47712	52.26
47760	35.09
47808	24.79
47856	23.2633
47904	22.2267
47952	33.5467
48000	38.7267
48048	45.0267
48096	53.97
48144	67.35
48192	70.26
48240	70.0733
48288	67.0467
48336	49.2367
48384	46.3733
48432	37.6067
48480	28.2433
48528	22.3067
48576	23.67
48624	27.09
48672	37.2
48720	52.78
48768	64.6467
48816	66.2933
48864	69.95
48912	62.9767
48960	57.1233
49008	54.3
49056	37.6133
49104	26.73
49152	23.0333
49200	22.6367
49248	24.5733
49296	34.32
49344	44.0533
49392	51.36
49440	61.74
49488	69.79
49536	69.8367
49584	67.9767
49632	57.9
49680	39.8367
49728	39.9667
49776	30.1867
49824	26.5767
49872	23.99
49920	27.0433
49968	35.4267
50016	44.36
50064	59.4333
50112	62.7
50160	67.66
50208	68.4567
50256	64.5333
50304	54.4533
50352	48.9633
50400	37.9933
50448	27.6733
50496	24.2167
50544	23.79
50592	31.17
50640	44.1233
50688	44.7233
50736	51.7767
50784	63.4967
50832	68.8833
50880	68.1733
50928	65.9733
50976	60.2
51024	43.3367
51072	34.4433
51120	29.2833
51168	25.5133
51216	26.4233
51264	29.9167
51312	39.49
51360	50.4567
51408	62.5933
51456	66.55
51504	67.0867
51552	66.5833
51600	57.0833
51648	53.8233
51696	42.96
51744	35.76
51792	26.2867
51840	24.7067
51888	26.9
51936	31.8467
51984	44.0167
52032	47.7333
52080	60.46
52128	67.9733
52176	67.0267
52224	64.5
52272	61.5533
52320	54.9
52368	38.5333
52416	31.7033
52464	25.8067
52512	25.0967
52560	29.9233
52608	35.2433
52656	42.3567
52704	53.18
52752	66.05
52800	66.8767
52848	67.3333
52896	65.99
52944	56.4333
52992	44.9033
53040	41.9033
53088	34.55
53136	26.3433
53184	25.8467
53232	29.4433
53280	38.1267
53328	49.9
53376	55.36
53424	57.7967
53472	65.2667
53520	65.0933
53568	63.7333
53616	57.9467
53664	51.92
53712	39.7567
53760	33.5667
53808	26.65
53856	26.7633
53904	32.5467
53952	34.1867
54000	41.18
54048	55.93
54096	64.4467
54144	66.05
54192	65.9667
54240	63.2933
54288	54.4567
54336	48.52
54384	37.0033
54432	30.79
54480	26.87
54528	27.46
54576	29.57
54624	35.69
54672	51.9067
54720	56.6533
54768	58.5433
54816	64.8533
54864	64.74
54912	58.7733
54960	54.51
55008	47.18
55056	35.8067
55104	31.3067
55152	27.9167
55200	28.8633
55248	38.05
55296	39.7667
55344	46.26
55392	55.7567
55440	64.65
55488	64.9
55536	64.29
55584	61.2867
55632	49.93
55680	41.4833
55728	36.8633
55776	29.16
55824	28.14
55872	30.01
55920	34.38
55968	39.87
56016	54.84
56064	59.5933
56112	60.82
56160	64.4567
56208	58.86
56256	54.3033
56304	49.8467
56352	43.8733
56400	32.8433
56448	28.58
56496	28.62
56544	33.2433
56592	42.17
56640	48.3367
56688	49.3967
56736	57.0267
56784	63.8533
56832	63.4267
56880	61.6933
56928	57.4867
56976	47.23
57024	39.3
57072	31.95
57120	29.7467
57168	30.21
57216	32.2267
57264	38.82
57312	47.78
57360	57.8133
57408	58.2267
57456	61.2933
57504	63.25
57552	59.5767
57600	50.0267
57648	48.0233
57696	40.4933
57744	32.2467
57792	29.89
57840	30.5433
57888	31.39
57936	43.6633
57984	45.0767
58032	51.8667
58080	59.6533
58128	61.6567
58176	60.9733
58224	60.6467
58272	51.8033
58320	41.48
58368	36.56
58416	32.97
58464	30.4867
58512	33.3967
58560	38.1633
58608	45.0033
58656	50.1467
58704	58.4167
58752	60.7333
58800	61.98
58848	56.4667
58896	50.6133
58944	46.8533
58992	42.8767
59040	37.4567
59088	31.2467
59136	31.2833
59184	32.92
59232	38.69
59280	46.5767
59328	54.9867
59376	58.3633
59424	60.8767
59472	60.0533
59520	56.9367
59568	56.2233
59616	47.2167
59664	36.9133
59712	33.5367
59760	32.0633
59808	31.6933
59856	36.9933
59904	42.5133
59952	49.3167
60000	52.7433
60048	59.68
60096	60.78
60144	59.6767
60192	57.37
60240	48.84
60288	45.7133
60336	41.0167
60384	34.26
60432	32.23
60480	35.7867
60528	36.4767
60576	41.6033
60624	51.51
60672	57.5067
60720	59.0067
60768	60.2433
60816	56.0833
60864	54.4367
60912	47.81
60960	37.54
61008	32.6633
61056	32.57
61104	32.75
61152	35.81
61200	44.92
61248	53.1967
61296	52.8067
61344	58.4133
61392	59.4367
61440	59.1833
61488	54.7133
61536	49.4933
61584	37.15
61632	36.2767
61680	35.27
61728	33.9933
61776	37.2167
61824	40.4267
61872	44.4267
61920	50.9633
61968	55.48
62016	58.5767
62064	58.9967
62112	55.2633
62160	49.48
62208	48.69
62256	44.3033
62304	37.2233
62352	33.96
62400	34.6167
62448	36.0267
62496	38.4833
62544	48.02
62592	52.7867
62640	55.4067
62688	57.46
62736	58.0133
62784	56.36
62832	51.2
62880	44.7433
62928	38.4567
62976	35.65
63024	34.8533
63072	34.7667
63120	41.3133
63168	41.4167
63216	47.3867
63264	51.63
63312	56.7167
63360	58.0433
63408	56.1467
63456	54.5
63504	47.9533
63552	45.1733
63600	38.2167
63648	34.8333
63696	35.6967
63744	37.3033
63792	39.5567
63840	43.4367
63888	52.1967
63936	54.91
63984	57.44
64032	56.6
64080	52.4233
64128	49.4633
64176	44.8067
64224	38.6867
64272	35.4133
64320	35.5167
64368	36.16
64416	39.9767
64464	47.4433
64512	52.6867
64560	54.08
64608	56.4967
64656	56.25
64704	54.4967
64752	49.9433
64800	42.6667
64848	37.6333
64896	36.36
64944	36.04
64992	37.1433
65040	44.1733
65088	43.6967
65136	48.4167
65184	52.3367
65232	55.6733
65280	56.25
65328	54.28
65376	51.36
65424	44.1133
65472	43.21
65520	38.5133
65568	36.28
65616	38.7
65664	41.26
65712	42.3933
65760	45.3833
65808	52.1733
65856	54.39
65904	55.9
65952	54.99
66000	51.3033
66048	48.49
66096	45.4833
66144	39.7467
66192	36.7567
66240	37.3033
66288	37.3233
66336	39.39
66384	47.5567
66432	50.6833
66480	52.54
66528	53.7867
66576	55.48
66624	54.33
66672	50.8267
66720	46.9033
66768	40.2133
66816	40.06
66864	37.94
66912	37.0733
66960	41.2867
67008	41.8867
67056	44.54
67104	47.4533
67152	53.1667
67200	55.1933
67248	55.1
67296	53.8167
67344	50.8367
67392	48.03
67440	43.73
67488	42.24
67536	37.3433
67584	37.9267
67632	39.5867
67680	44.8
67728	51.2967
67776	51.5367
67824	52.2067
67872	53.8733
67920	54.5833
67968	51.9733
68016	48.0267
68064	45.3033
68112	40.1533
68160	39.5433
68208	37.9133
68256	38.07
68304	42.2133
68352	45.2133
68400	45.4633
68448	50.7933
68496	53.8567
68544	54.5333
68592	53.8833
68640	51.5567
68688	48.5733
68736	45.1333
68784	42.7367
68832	38.4467
68880	38.3267
68928	38.68
68976	39.8133
69024	43.57
69072	50.6633
69120	52.59
69168	53.79
69216	54.2133
69264	53.05
69312	50.9733
69360	46.6267
69408	44.81
69456	39.4
69504	38.9233
69552	38.18
69600	51.79
69648	53.3867
69696	51.4
69744	49.63
69792	45.4933
69840	39.0133
69888	38.5067
69936	38.38
69984	39.2733
70032	42.9833
70080	46.3033
70128	50.8533
70176	53.09
70224	54.1567
70272	53.99
70320	53.0267
70368	48.9967
70416	43.6367
70464	41.76
70512	39.5033
70560	38.67
70608	38.9333
70656	41.7933
70704	44.8467
70752	50.0833
70800	52.6933
70848	54.06
70896	54.1867
70944	52.1733
70992	47.8267
71040	45.7667
71088	45.5733
71136	41.55
71184	38.1267
71232	38.4433
71280	39.64
71328	42.0467
71376	46.3567
71424	49.72
71472	53.5033
71520	54.4367
71568	53.39
71616	52.7733
71664	50.3767
71712	45.0567
71760	40.38
71808	40.0233
71856	38.8467
71904	38.2633
71952	42.4767
72000	45.37
72048	47.1933
72096	48.9167
72144	53.4733
72192	54.4767
72240	53.8033
72288	53.0267
72336	47.63
72384	46.7
72432	43.23
72480	38.42
72528	38.31
72576	39.04
72624	38.9333
72672	44.05
72720	51.1
72768	50.92
72816	53.72
72864	54.5667
72912	53.9867
72960	52.4267
73008	47.7967
73056	44.4733
73104	40.55
73152	39.4067
73200	37.9567
73248	39.8467
73296	44.36
73344	46.02
73392	48.1567
73440	51.2533
73488	54.2533
73536	54.91
73584	54.23
73632	49.55
73680	47.5433
73728	44.3667
73776	41.6867
73824	37.9833
73872	39.0167
73920	41.3033
73968	41.04
74016	43.89
74064	52.4767
74112	53.9933
74160	55.1267
74208	55.1367
74256	53.0467
74304	49.71
74352	45.06
74400	40.7467
74448	37.2667
74496	37.6033
74544	37.42
74592	39.8033
74640	46.4567
74688	47.5233
74736	51.1167
74784	54.2167
74832	55.55
74880	53.8133
74928	51.8667
74976	48.0867
75024	43.3433
75072	40.2567
75120	37.3867
75168	37.03
75216	40.19
75264	41.89
75312	44.1067
75360	50.0033
75408	55.7567
75456	56.18
75504	55.97
75552	54.4733
75600	48.8867
75648	44.0367
75696	41.9033
75744	37.9067
75792	36.6767
75840	37.4
75888	39.95
75936	45.6
75984	52.2567
76032	52.5433
76080	54.5433
76128	56.7667
76176	53.6067
76224	49.0433
76272	45.2967
76320	42.3533
76368	38
76416	36.6333
76464	36.1333
76512	37.4
76560	42
76608	46.7967
76656	50
76704	55.1433
76752	57.2067
76800	56.36
76848	55.6767
76896	51.4567
76944	43.0633
76992	39.8667
77040	37.5
77088	36.15
77136	36.49
77184	38.83
77232	43.66
77280	49.6567
77328	55.5733
77376	56.6067
77424	57.5767
77472	55.2
77520	48.95
77568	46.5067
77616	42.6867
77664	37.79
77712	35.09
77760	35.83
77808	38.0033
77856	42.5667
77904	48.9167
77952	52.6933
78000	57.47
78048	57.8633
78096	55.1033
78144	54.4
78192	50.9733
78240	43.5767
78288	37.17
78336	35.46
78384	34.7233
78432	35.7467
78480	42.9767
78528	43.71
78576	49.1133
78624	53.33
78672	57.67
78720	58.5733
78768	57.02
78816	53.6233
78864	49.28
78912	47.82
78960	36.3467
79008	35.06
79056	35.4267
79104	35.92
79152	38.09
79200	43.16
79248	54.57
79296	57.1533
79344	57.5767
79392	58.4233
79440	52.1833
79488	52.3833
79536	47.5633
79584	44.4467
79632	36.15
79680	33.4867
79728	33.43
79776	37.26
79824	42.8567
79872	47.56
79920	51.7233
79968	57.1
80016	59.4233
80064	58.6667
80112	55.03
80160	49.6033
80208	37.6467
80256	36.4033
80304	35.4533
80352	32.8667
80400	36.9633
80448	39.8533
80496	44.62
80544	50.09
80592	56.8767
80640	59.3767
80688	59.9433
80736	57.3033
80784	53.1467
80832	47.1167
80880	40.89
80928	33.3633
80976	32.2933
81024	32.6467
81072	33.28
81120	39.5367
81168	50.2233
81216	53.6033
81264	56.9067
81312	58.5933
81360	59.8033
81408	53.6967
81456	53.7167
81504	41.6333
81552	36.3867
81600	34.62
81648	32.9267
81696	32.59
81744	40.6467
81792	42.5633
81840	44.7033
81888	53.1133
81936	58.8333
81984	61.28
82032	60.8567
82080	56.89
82128	52.07
82176	46.6567
82224	40.2333
82272	33.68
82320	31.6833
82368	31.9367
82416	33.8667
82464	39.44
82512	52.8567
82560	55.7633
82608	57.17
82656	60.5567
82704	60.98
82752	54.14
82800	51.8767
82848	45.1033
82896	36.5
82944	33.0267
82992	30.55
83040	31.06
83088	37.35
83136	39.7033
83184	46.8933
83232	56.3667
83280	62.2467
83328	62.1767
83376	60.92
83424	57.0267
83472	43.7033
83520	37.9233
83568	34.6933
83616	32.45
83664	30.77
83712	34.08
83760	39.0933
83808	41.7733
83856	55.2433
83904	57.5667
83952	62.19
84000	62.0167
84048	55.3333
84096	51.4433
84144	49.6733
84192	35.86
84240	29.93
84288	30.43
84336	30.1267
84384	33.4667
84432	42.8767
84480	49.9667
84528	54.4967
84576	61.2733
84624	63.1067
84672	61.3433
84720	57.7367
84768	50.52
84816	38.51
84864	33.6333
84912	32.87
84960	29.1
85008	35.19
85056	36.6567
85104	41.9967
85152	47.0533
85200	58.9933
85248	64
85296	63.9667
85344	61.27
85392	51.73
85440	49.03
85488	41.75
85536	33.5067
85584	28.4733
85632	28.8967
85680	29.8433
85728	40.5267
85776	48.2033
85824	55.8833
85872	59.1567
85920	64.1367
85968	63.63
86016	60.4167
86064	56.5233
86112	41.95
86160	35.5667
86208	34.7133
86256	29.9467
86304	28.47
86352	36.9733
86400	39.7567
86448	42.7167
86496	50.0467
86544	61.2133
86592	64.9567
86640	64.6967
86688	62.7467
86736	54.4333
86784	46.5833
86832	40.1767
86880	30.6667
86928	27.8
86976	28.4433
87024	30.9867
87072	39.1233
87120	53.05
87168	55.52
87216	59.7133
87264	65.04
87312	62.39
87360	57.24
87408	52.74
87456	45.43
87504	33.4
87552	28.1767
87600	27.1833
87648	28.1933
87696	35.99
87744	41.85
87792	52.4033
87840	60.7867
87888	65.5733
87936	65.6467
87984	64.8033
88032	54.61
88080	41.96
88128	42.23
88176	33.31
88224	28.63
88272	27.16
88320	29.6633
88368	38.8167
88416	47.9233
88464	55.9
88512	61.98
88560	65.7233
88608	62.6667
88656	53.7533
88704	53.4367
88752	47.3667
88800	38.05
88848	28.1033
88896	25.9333
88944	26.59
88992	32.84
89040	40.6567
89088	53.6567
89136	58.7633
89184	65.0733
89232	66.2467
89280	63.6467
89328	62.19
89376	50.0567
89424	36.8333
89472	30.9933
89520	28.3133
89568	25.6767
89616	29.0533
89664	37.1667
89712	46.1467
89760	54.2567
89808	64.1
89856	65.5267
89904	66.94
89952	60.4
90000	47.8
90048	45.37
90096	38.0333
90144	30.82
90192	25.2167
90240	28.09
90288	30.9433
90336	38.9067
90384	50.01
90432	59.21
90480	66.83
90528	66.9367
90576	62.4367
90624	60.87
90672	53.2133
90720	40.66
90768	27.66
90816	24.93
90864	25.0267
90912	25.8867
90960	39.7133
91008	41.4
91056	52.1467
91104	59.32
91152	66.76
91200	67.8867
91248	63.9767
91296	57.6233
91344	43.4067
91392	40.98
91440	33.3367
91488	23.9233
91536	26.2933
91584	29.7333
91632	34.3267
91680	40.8933
91728	55.56
91776	64.1667
91824	67.72
91872	67.83
91920	63.3267
91968	55.6867
92016	50.1933
92064	34.21
92112	25.52
92160	23.88
92208	24.0133
92256	26.8633
92304	42.0967
92352	48.4
92400	54.21
92448	59.8633
92496	67.0667
92544	68.6867
92592	64.8033
92640	56.0367
92688	45.7867
92736	40.2667
92784	32.9667
92832	23.2867
92880	25.8
92928	27.2033
92976	30.7133
93024	44.3667
93072	63.6767
93120	67.2967
93168	69.3867
93216	68.9367
93264	63.1267
93312	52.3633
93360	44.6633
93408	36.4933
93456	24.56
93504	23.8367
93552	23.9967
93600	34.3667
93648	46.81
93696	53.8867
93744	53.1433
93792	65.2667
93840	67.88
93888	67.9
93936	62.24
93984	53.72
94032	39.74
94080	30.7133
94128	23.0767
94176	23.0967
94224	30.04
94272	33.87
94320	43.0467
94368	59.3267
94416	69.65
94464	69.8267
94512	69.5133
94560	66.6833
94608	54.5467
94656	38.6333
94704	34.3867
94752	25.33
94800	22.5967
94848	25.24
94896	28.1267
94944	43.85
94992	58.3233
95040	64.16
95088	64.8333
95136	70.0033
95184	62.01
95232	57.4833
95280	51.0167
95328	44.3967
95376	30.43
95424	23.5933
95472	22.1433
95520	26.15
95568	40.2633
95616	41.9633
95664	54.1067
95712	64.4
95760	70.5533
95808	70.1967
95856	68.3833
95904	62.2
95952	46.7467
96000	31.48
96048	28.51
96096	23.0167
96144	22.87
96192	26.8133
96240	38.15
96288	41.76
96336	63.5
96384	64.5667
96432	69.7767
96480	69.3367
96528	56.2067
96576	48.04
96624	47.9967
96672	34.71
96720	21.6533
96768	21.66
96816	23.25
96864	29.17
96912	40.7367
96960	51.6033
97008	65.6
97056	70.3733
97104	69.0767
97152	67.06
97200	59.5333
97248	43.4667
97296	28.2867
97344	25.3633
97392	22.0033
97440	21.42
97488	27.5167
97536	41.8233
97584	46.9033
97632	61.2167
97680	67.9667
97728	71.0433
97776	70.4133
97824	62.1867
97872	45.91
97920	38.1567
97968	37.84
98016	26.8433
98064	21.8567
98112	24.8933
98160	30.9267
98208	37.95
98256	51.4133
98304	61.9067
98352	70.58
98400	71.26
98448	64.4267
98496	61.41
98544	52.4033
98592	34.98
98640	22.69
98688	22.8067
98736	20.8467
98784	22.72
98832	39.9033
98880	49.9033
98928	57.0267
98976	62.69
99024	70.8167
99072	70.23
99120	65.2567
99168	59.4233
99216	39.0067
99264	36.0567
99312	26.7567
99360	20.1633
99408	27.2133
99456	32.3167
99504	33.8267
99552	46.6033
99600	68.3033
99648	69.7933
99696	72.0233
99744	69.3967
99792	60.2567
99840	51.2967
99888	37.3467
99936	27.52
99984	20.12
100032	20.3733
100080	21.7567
100128	35.0567
100176	45.9967
100224	60.41
100272	66.52
100320	71.8667
100368	71.0967
100416	67.0533
100464	56.01
100512	42.14
100560	26.69
100608	25.88
100656	22.4667
100704	20.1533
100752	32.2133
100800	39.85
100848	46.38
100896	53.3
100944	68.42
100992	72.44
101040	70.7633
101088	65.3733
101136	50.6267
101184	48.36
101232	35.1533
101280	22.56
101328	21.0333
101376	21.9167
101424	24.3433
101472	33.8933
101520	59.07
101568	62.7667
101616	70.7367
101664	70.9967
101712	70.49
101760	61.1267
101808	53.21
101856	37.9233
101904	28.78
101952	23.4233
102000	20.1933
102048	24.1467
102096	38.2767
102144	46.4933
102192	48.9233
102240	61.0933
102288	72.5867
102336	71.7633
102384	67.9967
102432	62.2667
102480	47.5567
102528	32.53
102576	30.9533
102624	19.36
102672	23.8533
102720	30.1733
102768	30.4933
102816	40.2267
102864	64.8
102912	69.39
102960	72.36
103008	72.5267
103056	66.3133
103104	59.58
103152	44.94
103200	34.8667
103248	19.8733
103296	19.9333
103344	19.7367
103392	24.3167
103440	42.71
103488	46.2833
103536	59.4133
103584	64.47
103632	71.8967
103680	70.51
103728	66.36
103776	53.2233
103824	41.69
103872	33.2433
103920	26.6467
103968	19.28
104016	24.61
104064	29.6633
104112	35.74
104160	40.4067
104208	59.1067
104256	69.8867
104304	72.77
104352	70.7467
104400	61.8467
104448	54.3133
104496	46.9333
104544	31.07
104592	19.69
104640	19.2533
104688	19.8233
104736	23.5267
104784	47.0267
104832	55.8333
104880	62.58
104928	65.8667
104976	72.4133
105024	71.5033
105072	62.61
105120	53.28
105168	33.2433
105216	34.76
105264	25.29
105312	19.2633
105360	26.3
105408	28.29
105456	36.4533
105504	44.1233
105552	68.64
105600	72.3767
105648	72.9333
105696	71.3233
105744	60.7833
105792	48.5033
105840	39.0367
105888	34.48
105936	20.6433
105984	19.48
106032	20.8333
106080	37.0167
106128	51.8667
106176	57.12
106224	56.4133
106272	67.8967
106320	69.6733
106368	69.5133
106416	58.9467
106464	49.15
106512	33.1433
106560	21.7267
106608	19.2767
106656	20.5667
106704	26.86
106752	35.18
106800	49.72
106848	58.3067
106896	72.74
106944	72.9833
106992	72.0567
107040	66.7033
107088	41.3967
107136	35.7133
107184	32.4867
107232	26.9367
107280	20.41
107328	24.9533
107376	30.62
107424	36.7367
107472	54.34
107520	62.1633
107568	72.14
107616	72.6733
107664	64.7633
107712	62.7667
107760	53.3333
107808	30.6633
107856	19.9333
107904	19.23
107952	19.62
108000	22.1133
108048	34.0767
108096	48.2933
108144	55.12
108192	66.0567
108240	71.4167
108288	71.86
108336	68.6233
108384	57.0167
108432	37.47
108480	30.7467
108528	30.73
108576	21.56
108624	24.9467
108672	26.88
108720	34.96
108768	42.3967
108816	57.56
108864	69.7667
108912	72.5
108960	71.0867
109008	64.04
109056	56.1367
109104	43.8433
109152	29.6067
109200	19.74
109248	20.7433
109296	19.7367
109344	25.3
109392	47.9533
109440	55.4533
109488	59.5967
109536	65.2667
109584	72.13
109632	67.9533
109680	62.7533
109728	59.0567
109776	42.4
109824	31.4233
109872	20.5967
109920	19.79
109968	29.1767
110016	28.8833
110064	35.9
110112	53.0533
110160	68.88
110208	69.1267
110256	72.53
110304	71.8067
110352	63.5533
110400	45.6833
110448	41.4967
110496	30.4733
110544	23.2933
110592	20.0167
110640	24.16
110688	24.5133
110736	47.34
110784	51.5967
110832	59.0433
110880	67.8967
110928	71.0867
110976	67.8533
111024	64.53
111072	60.4767
111120	42.11
111168	31.7967
111216	21.8533
111264	19.5333
111312	21.9433
111360	27.2833
111408	39.0933
111456	49.6933
111504	66.95
111552	68.2867
111600	71.4033
111648	67.09
111696	65.13
111744	49.91
111792	41.81
111840	35.13
111888	22.5633
111936	20.27
111984	24.1733
112032	31.3233
112080	47.5033
112128	51.3
112176	58.25
112224	68.5333
112272	69.42
112320	65.46
112368	62.01
112416	53.69
112464	36.1233
112512	24.4567
112560	21.1933
112608	20.6067
112656	24.5633
112704	31.5633
112752	45.7667
112800	57.5967
112848	70.11
112896	70.2567
112944	71.9267
112992	69.7833
113040	51.8633
113088	47.1467
113136	37.3433
113184	30.7033
113232	20.5533
113280	25.11
113328	28.43
113376	36.02
113424	47.88
113472	58.77
113520	69.7867
113568	71.1133
113616	62.2633
113664	61.4367
113712	56.4
113760	45.68
113808	25.8567
113856	20.82
113904	20.9967
113952	21.8
114000	39.8167
114048	41.5767
114096	55.0167
114144	62.89
114192	70.4367
114240	69.9467
114288	65.6767
114336	57.6733
114384	45.3133
114432	37.1667
114480	26.7533
114528	21.16
114576	26.7233
114624	29.18
114672	32.6667
114720	46.1033
114768	65.6667
114816	70.2067
114864	71.1633
114912	70.8867
114960	61.7833
115008	51.7133
115056	40.2567
115104	29.7033
115152	23.3333
115200	21.1467
115248	21.8267
115296	33.0967
115344	51.2267
115392	55.1667
115440	59.09
115488	69.51
115536	70.6067
115584	63.53
115632	56.66
115680	46.63
115728	36.3033
115776	27.6767
115824	21.32
115872	22.3467
115920	36.5
115968	36.5833
116016	45.1
116064	57.6333
116112	70.9533
116160	70.2933
116208	66.8
116256	65.1267
116304	49.54
116352	32.4667
116400	27.5733
116448	24.51
116496	22.1133
116544	24.4433
116592	29.9833
116640	46.1967
116688	63.1467
116736	66.0567
116784	67.83
116832	70.4167
116880	57.3533
116928	56.42
116976	40.5567
117024	36.1867
117072	25.8467
117120	21.8067
117168	24.17
117216	31.6233
117264	41.45
117312	49.37
117360	57.2533
117408	66.3133
117456	69.6533
117504	65.3867
117552	64.5567
117600	55.7933
117648	41.31
117696	29.28
117744	23.13
117792	22.1467
117840	26.21
117888	36.9667
117936	41.0433
117984	60.8733
118032	66.8
118080	69.9733
118128	69.8533
118176	66.6633
118224	46.29
118272	40.3667
118320	33.64
118368	30.9533
118416	23.3833
118464	23.1567
118512	30.9967
118560	40.8733
118608	58.2933
118656	57.7233
118704	63.1033
118752	69.5667
118800	62.1367
118848	61.2467
118896	51.6133
118944	47.2167
118992	33.14
119040	24.0133
119088	22.82
119136	26.5067
119184	33.4833
119232	41.3933
119280	56.38
119328	61.16
119376	69.2767
119424	68.9567
119472	68.26
119520	60.74
119568	41.0233
119616	31.4067
119664	28.9833
119712	25.7733
119760	23.4333
119808	27.36
119856	39.7167
119904	49.6133
119952	62.16
120000	61.5033
120048	65.2933
120096	67.7367
120144	56.4333
120192	49.7233
120240	49.74
120288	40.3867
120336	29.48
120384	23.2767
120432	24.9967
120480	31.9633
120528	37.5467
120576	43.52
120624	57.1833
120672	66.4467
120720	68.36
120768	68.5367
120816	67.4
120864	61.64
120912	39.96
120960	32.7533
121008	28.76
121056	28.4567
121104	24.0133
121152	30.5733
121200	35.6767
121248	40.5067
121296	58.86
121344	60.5533
121392	65.2367
121440	67.2833
121488	57.08
121536	51.01
121584	52.34
121632	42.3733
121680	25.0067
121728	24.83
121776	24.9167
121824	28.72
121872	36.0733
121920	42.6433
121968	58.1833
122016	64.8933
122064	67.5333
122112	67.4433
122160	65.81
122208	54.3767
122256	47.4767
122304	34.7533
122352	26.2233
122400	24.81
122448	25.96
122496	28.6067
122544	41.25
122592	50.0333
122640	64.19
122688	63.1867
122736	65.3267
122784	67.2867
122832	54.1867
122880	45.4467
122928	39.5467
122976	37.42
123024	27.6767
123072	25.4133
123120	28.1467
123168	32.1533
123216	48.2467
123264	48.7167
123312	55.4
123360	66.84
123408	64.6
123456	60.6267
123504	60.6967
123552	53.26
123600	32.0867
123648	30.59
123696	25.9067
123744	25.4933
123792	35.7
123840	34.5467
123888	46.0767
123936	55.6467
123984	65.02
124032	64.9633
124080	66.42
124128	63.1967
124176	58.64
124224	46.4
124272	37.6467
124320	29.9433
124368	26.4733
124416	26.0233
124464	31.0267
124512	39.47
124560	53.5233
124608	54.01
124656	57.4533
124704	63.5633
124752	63.8867
124800	58.32
124848	54.1833
124896	51.9433
124944	39.73
124992	28.3
125040	26.1167
125088	26.32
125136	35.3733
125184	36.7567
125232	42.2933
125280	56.9933
125328	65.7233
125376	65.7167
125424	65.6833
125472	63.5033
125520	45.33
125568	41.35
125616	33.0467
125664	28.9333
125712	27.0467
125760	31.1233
125808	36.0667
125856	46.0767
125904	54.29
125952	56.75
126000	60.59
126048	65.1333
126096	57.9833
126144	52.3567
126192	53.84
126240	47.5333
126288	28.77
126336	27.6933
126384	27.7233
126432	28.5333
126480	34.7333
126528	44.2667
126576	45.0167
126624	58.7833
126672	64.7733
126720	64.32
126768	63.8233
126816	59.8133
126864	42.2367
126912	36.08
126960	31.71
127008	30.42
127056	27.9367
127104	32.7267
127152	38.4267
127200	46.7433
127248	55.59
127296	58.5433
127344	62.7633
127392	63.0167
127440	53.33
127488	52.5133
127536	47.23
127584	41.08
127632	28.47
127680	28.22
127728	29.1367
127776	31.9633
127824	39.2267
127872	45.9633
127920	54.4033
127968	60.4167
128016	63.2367
128064	62.89
128112	60.8533
128160	46.59
128208	35.8567
128256	32.3467
128304	31.22
128352	29.24
128400	35.29
128448	37.05
128496	43.5067
128544	51.2433
128592	57.0933
128640	60.8867
128688	63.2167
128736	58.7567
128784	49.68
128832	50.03
128880	46.66
128928	36.5633
128976	29.3833
129024	30.1267
129072	31.6967
129120	33.1367
129168	41.29
129216	52.3567
129264	58.4467
129312	62.38
129360	62.7033
129408	61.1333
129456	58.7833
129504	45.8067
129552	35.2633
129600	32.3633
129648	31.7533
129696	30.2033
129744	35.6933
129792	40.45
129840	44.7167
129888	45.89
129936	55.2733
129984	59.2733
130032	62.2
130080	59.8033
130128	50.5433
130176	50.1967
130224	49.13
130272	35.29
130320	30.2733
130368	30.1867
130416	32.0233
130464	34.0867
130512	42.9133
130560	52.4467
130608	58.9233
130656	61.6967
130704	61.4833
130752	59.8133
130800	50.8633
130848	46.58
130896	33.2567
130944	32.1233
130992	32.34
131040	30.9967
131088	38.7833
131136	46.3367
131184	50.3
131232	52.5967
131280	59.6567
131328	61.0133
131376	56.71
131424	51.48
131472	40.58
131520	40.5633
131568	37.7
131616	31.31
131664	34.7033
131712	38.35
131760	39.8
131808	42.85
131856	52.9133
131904	59.54
131952	60.62
132000	58.6333
132048	55.38
132096	52.7
132144	41.75
132192	36.1333
132240	31.9667
132288	31.85
132336	32.1667
132384	34.63
132432	46.6767
132480	52.9367
132528	56.6
132576	57.84
132624	60.14
132672	57.33
132720	52.7467
132768	48.8033
132816	37.4467
132864	36.6767
132912	34.2467
132960	32.79
133008	38.8033
133056	42.8367
133104	44.1833
133152	47.96
133200	58.56
133248	59.5233
133296	58.9033
133344	55.8067
133392	51.2167
133440	46.86
133488	40.41
133536	34.0467
133584	33.01
133632	33.5633
133680	34.36
133728	38.8367
133776	51.8067
133824	54.5233
133872	57.9867
133920	59.1567
133968	58.0567
134016	52.9167
134064	48.21
134112	41.8567
134160	36.9133
134208	35.9033
134256	34.1067
134304	36.08
134352	43.1633
134400	46.3867
134448	46.3667
134496	50.2567
134544	58.6233
134592	58.2567
134640	56.8467
134688	56.2933
134736	48.9133
134784	44.9933
134832	37.27
134880	34.24
134928	35.2333
134976	35.0967
135024	36.6433
135072	40.3833
135120	50.1033
135168	54.3133
135216	57.1367
135264	57.5567
135312	57.7033
135360	52.7667
135408	47.5933
135456	41.95
135504	38.18
135552	36.4033
135600	34.7667
135648	36.5767
135696	44.4633
135744	47.8467
135792	48.3667
135840	51.9067
135888	57.5
135936	56.4567
135984	54.74
136032	51.9133
136080	46.76
136128	41.1433
136176	39.7433
136224	34.93
136272	38.09
136320	40.59
136368	41.6967
136416	44.96
136464	55.1233
136512	56.74
136560	57.1033
136608	56.6967
136656	52.99
136704	49.6133
136752	41.9833
136800	37.9267
136848	35.51
136896	35.6267
136944	36.2367
136992	38.6233
137040	46.7467
137088	50.71
137136	54.0133
137184	55.6667
137232	56.32
137280	53.6
137328	49.4767
137376	44.31
137424	40.4367
137472	37.9733
137520	35.9333
137568	36.5533
137616	43.23
137664	45.4533
137712	46.88
137760	51.1833
137808	55.87
137856	55.68
137904	54.1533
137952	52.31
138000	46.6167
138048	41.6833
138096	37.6333
138144	36.35
138192	38.3567
138240	39.2167
138288	40.5733
138336	44.2367
138384	52.2433
138432	54.59
138480	55.53
138528	55.4233
138576	53.7367
138624	50.2933
138672	45.4967
138720	39.8
138768	36.9067
138816	36.8633
138864	37.0933
138912	41.53
138960	46.8733
139008	48.14
139056	51.3867
139104	52.4167
139152	55.07
139200	53.7767
139248	51.3833
139296	46.4633
139344	44.1233
139392	41.6
139440	39.5433
139488	37.33
139536	39.58
139584	42.36
139632	42.85
139680	45.8933
139728	53.7967
139776	54.6633
139824	54.6433
139872	54.15
139920	51.9467
139968	47.9167
140016	47.1067
140064	39.98
140112	37.6433
140160	37.7933
140208	38.25
140256	39.4933
140304	47.4333
140352	49.85
140400	51.8467
140448	53.16
140496	54.25
140544	53.9467
140592	51.41
140640	47.4967
140688	41.6633
140736	41.7033
140784	39.6267
140832	38.63
140880	41.9333
140928	42.3033
140976	44.9733
141024	46.4567
141072	53.2733
141120	53.7433
141168	53.8167
141216	53.46
141264	51.3633
141312	45.6367
141360	42.9733
141408	41.4867
141456	38.3267
141504	38.3533
141552	38.8933
141600	43.6367
141648	48.5133
141696	50.4067
141744	50.57
141792	52.3267
141840	52.44
141888	52.38
141936	49.3133
141984	46.5367
142032	43.9433
142080	41.3233
142128	38.84
142176	39.2033
142224	42.7133
142272	42.84
142320	44.4133
142368	48.8533
142416	53.2633
142464	53.2433
142512	52.8733
142560	51.58
142608	48.9633
142656	46.69
142704	42.8733
142752	39.1667
142800	39.1767
142848	39.2
142896	40.0833
142944	42.8233
142992	48.6233
143040	52.11
143088	52.7367
143136	52.9533
143184	52.7833
143232	49.9033
143280	46.7233
143328	44.98
143376	40.56
143424	40.3867
143472	39.4033
143520	40.1633
143568	45.0567
143616	46.8233
143664	46.7167
143712	49.01
143760	53.0167
143808	52.9067
143856	51.72
143904	49.2233
143952	46.9533
144000	44.6267
144048	41.3133
144096	39.2567
144144	40.4233
144192	40.6067
144240	41.52
144288	44.5967
144336	51.4767
144384	52.25
144432	52.99
144480	52.8167
144528	51.3767
144576	49.8833
144624	46.9133
144672	41.9067
144720	39.4067
144768	39.4633
144816	39.3633
144864	40.5567
144912	46.2133
144960	49.8367
145008	51.66
145056	51.8567
145104	52.6833
145152	51.5733
145200	49.6333
145248	47.9533
145296	42.2867
145344	42.1733
145392	41.1733
145440	39.53
145488	42.2667
145536	44.5833
145584	45.67
145632	48.03
145680	51.2667
145728	53.0267
145776	52.4333
145824	50.1067
145872	47.06
145920	46.5
145968	44.5433
146016	39.8033
146064	39.5533
146112	40.5
146160	41.69
146208	42.5967
146256	47.0533
146304	51.5667
146352	53.1
146400	52.74
146448	50.5067
146496	50.3767
146544	48.6333
146592	42.5033
146640	39.2867
146688	39.1633
146736	39.4367
146784	40.4467
146832	43.6367
146880	48.81
146928	51.5333
146976	53.3433
147024	53.0233
147072	52.6333
147120	51.6767
147168	48.9067
147216	41.33
147264	39.54
147312	38.8433
147360	39.1167
147408	40.5467
147456	42.2033
147504	44.2633
147552	51.7567
147600	53.4367
147648	52.95
147696	53.2133
147744	51.7667
147792	46.9133
147840	41.9133
147888	40.7233
147936	40.5033
147984	39.2567
148032	39.79
148080	42.6133
148128	45.2467
148176	50.9733
148224	50.6133
148272	51.9933
148320	53.42
148368	50.6733
148416	49.01
148464	47.86
148512	46.17
148560	38.9767
148608	38.6267
148656	38.78
148704	40.1967
148752	42.2467
148800	43.73
148848	49.5467
148896	53.1033
148944	53.8633
148992	53.61
149040	53.3833
149088	51.5667
149136	47.7667
149184	43.1633
149232	39.2667
149280	38.2033
149328	38.8967
149376	39.2033
149424	43.7767
149472	47.47
149520	52.7433
149568	52.78
149616	53.4667
149664	54.0733
149712	51.3467
149760	47.9333
149808	43.8267
