Path difference [nm]	Intensity [a.u.]
0	13.1067
48	12.6067
96	11.8333
144	14.98
192	15.5667
240	21.0067
288	15.46
336	14.15
384	13.5667
432	14.2033
480	16.1167
528	16.51
576	15.62
624	11.6667
672	12.4
720	15.37
768	14.33
816	15.0767
864	14.4767
912	15.0833
960	17.4533
1008	15.46
1056	18.05
1104	17.82
1152	14.7
1200	16.2833
1248	13.97
1296	16.65
1344	16.8633
1392	13.5967
1440	15.85
1488	15.6167
1536	11.8533
1584	13.2967
1632	14.78
1680	14.0633
1728	13.6733
1776	11.7367
1824	11.22
1872	11.5333
1920	12.0367
1968	16.7733
2016	12.48
2064	11.81
2112	17.9633
2160	10.7733
2208	8.6433
2256	9.9067
2304	13.8133
2352	9.08
2400	10.71
2448	13.1233
2496	12.9233
2544	16.8367
2592	16.8
2640	21.59
2688	17.7
2736	15.2
2784	17.7633
2832	12.83
2880	13.3967
2928	10.3367
2976	9.7367
3024	9.2667
3072	8.06
3120	10.2467
3168	13.29
3216	12.6033
3264	13.3
3312	13.7767
3360	14.2467
3408	13.8333
3456	14.94
3504	16.71
3552	16.4867
3600	8.8533
3648	3.51
3696	2.7133
3744	9.5933
3792	13.8033
3840	14.06
3888	14.3433
3936	6.56
3984	9.4067
4032	10.5533
4080	12.4967
4128	15.13
4176	13.3067
4224	14.2733
4272	13.7633
4320	15.9033
4368	13.1467
4416	21.0633
4464	15.9867
4512	17.88
4560	13.6667
4608	15.5833
4656	15.41
4704	13.9333
4752	15.59
4800	15.1433
4848	10.8133
4896	9.94
4944	8.6667
4992	11.2633
5040	14.18
5088	15.2133
5136	11.5533
5184	14.88
5232	12.95
5280	16.2267
5328	16.4233
5376	20.5133
5424	16.6133
5472	14.35
5520	13.9233
5568	13.3733
5616	13.8067
5664	13.42
5712	15.11
5760	15.0733
5808	9.8167
5856	12.4333
5904	12.0367
5952	12.2033
6000	14.8067
6048	14.1533
6096	17.4633
6144	19.1433
6192	16.5667
6240	14.7667
6288	16.3533
6336	14.1133
6384	11.6133
6432	9.49
6480	-0.5167
6528	-3.4533
6576	0.85
6624	10.33
6672	11.51
6720	13.2633
6768	9.9267
6816	11.04
6864	10.0633
6912	7.66
6960	6.3533
7008	6.6333
7056	8.6833
7104	5.44
7152	5.6633
7200	1.2
7248	2.7467
7296	4.76
7344	9.2967
7392	9.51
7440	14.76
7488	19.5067
7536	21.16
7584	17.7133
7632	15.12
7680	14.1633
7728	12.5767
7776	11.0433
7824	11.2867
7872	14.7733
7920	13.4233
7968	17.6433
8016	14.15
8064	16.6733
8112	18.5067
8160	17.18
8208	14.7933
8256	13.27
8304	12.5433
8352	10.56
8400	10.1467
8448	13.0267
8496	11.2
8544	14.5767
8592	14.28
8640	15.6767
8688	17.42
8736	18.04
8784	19.7467
8832	15.6967
8880	13.58
8928	12.6567
8976	9.6367
9024	9.0933
9072	10.0167
9120	13.5367
9168	16.4
9216	15.1733
9264	14.8267
9312	20.2133
9360	18.39
9408	16.3833
9456	17.6667
9504	15.4667
9552	14.8633
9600	12.9067
9648	9.48
9696	8.5533
9744	9.5333
9792	13.8067
9840	16.48
9888	15.1
9936	13
9984	20.3
10032	14.12
10080	16.1667
10128	14.9667
10176	15.5367
10224	12.9667
10272	11.83
10320	6.2667
10368	11.13
10416	10.1233
10464	15.55
10512	15.24
10560	14.3167
10608	15.6
10656	20.8433
10704	19.3633
10752	17.9933
10800	13.4733
10848	14.5167
10896	15.1867
10944	15.1667
10992	15.62
11040	11.6933
11088	8.3433
11136	11.1533
11184	13.83
11232	14.4
11280	11.8467
11328	16.6367
11376	16.1767
11424	18.7
11472	18.7867
11520	16.71
11568	15.6333
11616	13.77
11664	11.14
11712	12.9233
11760	8.82
11808	13.8767
11856	8.1433
11904	12.06
11952	13.6733
12000	14.57
12048	15.7533
12096	19.6767
12144	16.8567
12192	16.6133
12240	14.8167
12288	14.7433
12336	12.1967
12384	13.07
12432	8.3567
12480	11.6067
12528	14.8133
12576	14.61
12624	17.3033
12672	15.69
12720	22.2067
12768	17.5833
12816	16.75
12864	15.5767
12912	17.3333
12960	12.7
13008	10.7
13056	7.69
13104	9.8133
13152	11.35
13200	14.1633
13248	20.3067
13296	17.5867
13344	19.2767
13392	19.01
13440	15.0433
13488	13.9433
13536	13.9333
13584	12.5533
13632	7.66
13680	10.54
13728	11.1433
13776	12.5633
13824	16.61
13872	13.79
13920	16.9433
13968	17.4433
14016	20.5533
14064	16.7333
14112	16.14
14160	15.9033
14208	13.8567
14256	15.56
14304	9.1733
14352	12.3533
14400	12.7
14448	16.95
14496	16.8267
14544	17.0367
14592	16.4233
14640	19.3167
14688	18.6133
14736	18.0333
14784	17.6333
14832	17.1467
14880	13.2733
14928	12.94
14976	13.5267
15024	13.63
15072	13.9267
15120	19.17
15168	15.2633
15216	16.98
15264	18.5933
15312	20.2767
15360	17.5767
15408	17.0533
15456	13.7567
15504	16.0833
15552	15.4733
15600	10.4
15648	10.54
15696	12.4033
15744	14.4667
15792	13.32
15840	15.4533
15888	13.6967
15936	16.8767
15984	20.5767
16032	17.6933
16080	16.39
16128	12.3967
16176	14.2033
16224	12.8567
16272	13.0167
16320	12.51
16368	8.7433
16416	12.1833
16464	10
16512	12.6933
16560	14.61
16608	15.8267
16656	19.5833
16704	16.22
16752	13.0433
16800	10.1167
16848	14.6867
16896	13.0933
16944	4.7
16992	5.59
17040	10.0767
17088	16.3533
17136	11.65
17184	10.81
17232	13.6933
17280	12.31
17328	17.85
17376	19.1367
17424	12.87
17472	14.2133
17520	15.08
17568	13.2633
17616	7.5533
17664	8.1133
17712	8.6467
17760	10.4
17808	8.3967
17856	11.9967
17904	14.2067
17952	17.61
18000	13.6233
18048	11.55
18096	15.7933
18144	13.14
18192	12.16
18240	8.93
18288	6.7933
18336	7.4233
18384	7.5933
18432	11.6567
18480	10.0567
18528	9.0933
18576	10.6967
18624	17.4333
18672	15.5067
18720	17.2667
18768	11.07
18816	10.57
18864	11.8233
18912	3.3967
18960	6.5
19008	8.6167
19056	6.71
19104	4.5833
19152	13.3567
19200	13.25
19248	18.3667
19296	18.46
19344	19.41
19392	19.0333
19440	13.47
19488	15.7533
19536	11.8533
19584	13.06
19632	6.5233
19680	6.7367
19728	8.7733
19776	10.4267
19824	13.6033
19872	12.0333
19920	17.0833
19968	15.1533
20016	14.57
20064	13.1933
20112	12.76
20160	11.43
20208	10.73
20256	7.6133
20304	10.39
20352	9.1133
20400	9.74
20448	12.17
20496	11.0967
20544	13.28
20592	15.7333
20640	11.6533
20688	12.53
20736	13.9567
20784	11.72
20832	8.4767
20880	8.58
20928	12.8067
20976	11.7733
21024	12.4033
21072	7.9067
21120	10.8767
21168	10.71
21216	14.47
21264	15.0633
21312	13.65
21360	13.7933
21408	12.3
21456	13.8133
21504	11.3333
21552	11.2467
21600	6.3133
21648	9.75
21696	9.8367
21744	9.5267
21792	9.9333
21840	15.4833
21888	13.6133
21936	18.2933
21984	19.01
22032	15.1833
22080	9.97
22128	13.0633
22176	11.4767
22224	9.4667
22272	9.85
22320	8.27
22368	11.1133
22416	13.4933
22464	16.2833
22512	16.3
22560	15.2
22608	19.8167
22656	17.42
22704	16.2633
22752	14.21
22800	12.3033
22848	12.1833
22896	11.6067
22944	6.9533
22992	10.8633
23040	13.7867
23088	13.7533
23136	14.1967
23184	19.74
23232	22.0833
23280	18.69
23328	12.53
23376	3.98
23424	0.4333
23472	4.2433
23520	9.4333
23568	4.3067
23616	1.44
23664	-0.1933
23712	-0.0733
23760	5.1167
23808	18.5167
23856	17.1667
23904	19.3967
23952	15.8867
24000	17.0533
24048	16.33
24096	13.7467
24144	14.7933
24192	6.5733
24240	7.15
24288	11.55
24336	13.1433
24384	13.33
24432	13.2933
24480	16.61
24528	16.23
24576	23.3367
24624	20.8233
24672	18.9167
24720	19.9133
24768	13.6933
24816	13.63
24864	9.5033
24912	8.7267
24960	12.6267
25008	14.6
25056	15.8167
25104	17.5433
25152	18.65
25200	22.2833
25248	22.8033
25296	20.6933
25344	21.36
25392	18.0167
25440	17.17
25488	20.5933
25536	12.28
25584	10.5633
25632	9.8067
25680	9.5633
25728	11.1
25776	10.6767
25824	10.99
25872	12.4367
25920	11.93
25968	18.7933
26016	19.16
26064	21.99
26112	20.6233
26160	23.6567
26208	24.1833
26256	23.46
26304	23.1833
26352	16.9233
26400	10.9933
26448	5.2767
26496	2.8833
26544	3.6667
26592	1.7733
26640	5.2233
26688	12.09
26736	25.3733
26784	27.6167
26832	32.6133
26880	31.0533
26928	28.4033
26976	29.4567
27024	20.06
27072	5.8267
27120	0.8767
27168	2.8733
27216	1.52
27264	8.0933
27312	9.4933
27360	10.55
27408	18.5567
27456	24.39
27504	24.59
27552	22.1767
27600	21.7933
27648	18.89
27696	18.8567
27744	15.5033
27792	9.8667
27840	11.0433
27888	13.1867
27936	11.2833
27984	12.22
28032	14.8067
28080	14.5767
28128	20.2667
28176	19.95
28224	17.6467
28272	18.1733
28320	16.7633
28368	15.3367
28416	16.7467
28464	12.9233
28512	14.3833
28560	13.9333
28608	15.5533
28656	11.6133
28704	14.5033
28752	13.9333
28800	15.3633
28848	16.82
28896	19.5667
28944	17.0533
28992	18.8167
29040	17.01
29088	18.22
29136	16.41
29184	18.1667
29232	16.8067
29280	15.8433
29328	13.47
29376	14.3167
29424	13.7633
29472	15.0867
29520	14.9767
29568	16.4367
29616	15.8733
29664	22.0833
29712	20.8333
29760	19.33
29808	16.9167
29856	18.0167
29904	16.76
29952	19.6333
30000	15.2267
30048	12.4367
30096	11.9267
30144	13.71
30192	15.9933
30240	16.05
30288	15.1733
30336	17.5033
30384	16.1567
30432	20.43
30480	19.45
30528	15.2733
30576	17.4
30624	15.9167
30672	18.4267
30720	15.4
30768	14.5367
30816	12.1967
30864	12.1433
30912	13.4067
30960	12.3033
31008	15.8333
31056	14.46
31104	17.4533
31152	14.5333
31200	15.58
31248	21.7367
31296	20.1733
31344	18.8167
31392	17.2933
31440	16.7067
31488	13.1733
31536	13.7067
31584	9.1467
31632	12.7133
31680	14.3267
31728	12.3467
31776	14.1133
31824	18.6467
31872	15.71
31920	20.8233
31968	22.3567
32016	20.4167
32064	17.5733
32112	16.1733
32160	17.99
32208	14.35
32256	15.17
32304	10.3
32352	9.5467
32400	14.5133
32448	18.47
32496	14.21
32544	14.5467
32592	17
32640	12.6467
32688	13.77
32736	20.7933
32784	21.9733
32832	19.7833
32880	18.9667
32928	18.64
32976	21.1367
33024	17.2633
33072	15.3367
33120	14.41
33168	14.43
33216	10.8
33264	11.04
33312	11.3467
33360	14.31
33408	15.7167
33456	16.5733
33504	15.5467
33552	12.5933
33600	14.45
33648	20.4833
33696	18.2467
33744	12.99
33792	5.4267
33840	4.1933
33888	1.9267
33936	3.7067
33984	2.6467
34032	2.75
34080	7.68
34128	4.0933
34176	4.4567
34224	7.77
34272	11.2267
34320	9.3467
34368	12.01
34416	4.39
34464	10.64
34512	6.8167
34560	6.47
34608	2.37
34656	5.0967
34704	5.1
34752	5.28
34800	6.89
34848	11.0567
34896	9.8167
34944	12.4233
34992	13.63
35040	17.01
35088	16.56
35136	19.35
35184	20.4433
35232	16.2333
35280	12.8967
35328	11.3433
35376	14.2333
35424	12.7967
35472	10.1
35520	11.5533
35568	9.3533
35616	9.9733
35664	11.83
35712	13.27
35760	14.9067
35808	15.7
35856	19.5033
35904	21.5167
35952	11.7333
36000	14.7267
36048	16.8767
36096	13.23
36144	8.1267
36192	10.0567
36240	14.7467
36288	14.98
36336	14.5667
36384	12.4933
36432	15.4733
36480	12.77
36528	21.1767
36576	16.4367
36624	17.7867
36672	18.4367
36720	15.53
36768	12.01
36816	10.23
36864	11.6833
36912	12.5433
36960	13.4533
37008	12.9067
37056	15.6067
37104	16.5467
37152	18.1367
37200	16.1033
37248	15.76
37296	15.9767
37344	16.0333
37392	15.7633
37440	14.6
37488	15.0733
37536	9.8767
37584	12.1633
37632	9.2067
37680	9.1567
37728	12.4467
37776	10.2233
37824	11.7933
37872	11.69
37920	11.5167
37968	13.1833
38016	15.4033
38064	17.7933
38112	18.0933
38160	15.07
38208	15.6333
38256	16.56
38304	13.6467
38352	14.8367
38400	12.22
38448	14.2767
38496	8.9767
38544	10.1833
38592	11.3967
38640	13.6233
38688	11.8267
38736	13.58
38784	14.8667
38832	17.1733
38880	16.13
38928	18.8867
38976	20.5367
39024	20.6333
39072	17.1433
39120	15.75
39168	14.7267
39216	14.3
39264	14.24
39312	12.8067
39360	9.92
39408	7.0567
39456	11.27
39504	9.9833
39552	13.05
39600	15.5333
39648	16.8667
39696	17.0167
39744	20.1067
39792	21.6533
39840	17.3267
39888	16.61
39936	18.47
39984	15.2467
40032	11.5967
40080	9.94
40128	12.1667
40176	11.9233
40224	12.32
40272	16.23
40320	15.06
40368	14.54
40416	14.2933
40464	19.6633
40512	20.5833
40560	14.3667
40608	14.5633
40656	16.1433
40704	15.0767
40752	14.7933
40800	11.3367
40848	11.13
40896	6.45
40944	10.3767
40992	11.64
41040	14.8533
41088	14.34
41136	15.95
41184	15.2233
41232	15.41
41280	17.5667
41328	20.7567
41376	22.4767
41424	17.1
41472	16.5067
41520	16.2067
41568	15.0133
41616	15.1967
41664	14.28
41712	10.26
41760	13.0367
41808	12.62
41856	16.6633
41904	15.4067
41952	17.2133
42000	15.4533
42048	19.0433
42096	18.5767
42144	17.0433
42192	15.98
42240	16.3333
42288	15.0367
42336	13.1733
42384	10.14
42432	12.3867
42480	13.6867
42528	11.4867
42576	14.3133
42624	15.33
42672	14.7867
42720	15.1967
42768	18.96
42816	23.8467
42864	22.8433
42912	19.04
42960	16.9767
43008	16.9967
43056	16.8633
43104	17.0867
43152	15.3767
43200	13.4967
43248	13.0633
43296	10.95
43344	13.8567
43392	16.0467
43440	17.2067
43488	15.4533
43536	16.6433
43584	15.87
43632	16.01
43680	19.0333
43728	20.9933
43776	17.4667
43824	19.5267
43872	17.9733
43920	17.3333
43968	13.6267
44016	14.6067
44064	8.8533
44112	8.85
44160	13.1
44208	13.0633
44256	14.6233
44304	16.36
44352	15.2033
44400	22.1167
44448	18.32
44496	18.23
44544	17.5533
44592	14.55
44640	14.95
44688	14.3833
44736	14.8533
44784	10.0267
44832	14.76
44880	16.37
